Energy (cm-1)	Wavelength (nm)	Abs	<--UV Spectrum	UV-Vis transitions-->	Energy (cm-1)	Wavelength (nm)	Osc. strength
12500.0	800.0	0.0192132404348			7862.34688	1271.88486499	0.0002
12541.666666666666	797.3421926910299	0.0170434370725
12583.333333333334	794.7019867549668	0.0151024472397
12625.0	792.0792079207921	0.0133681421441
12666.666666666666	789.4736842105264	0.0118202963284
12708.333333333334	786.8852459016393	0.0104404509044
12750.0	784.3137254901961	0.009211783631
12791.666666666666	781.7589576547232	0.0081189858317
12833.333333333334	779.2207792207791	0.00714814609842
12875.0	776.6990291262136	0.00628664068684
12916.666666666666	774.1935483870968	0.00552303047286
12958.333333333334	771.7041800643086	0.00484696430846
13000.0	769.2307692307693	0.00424908859011
13041.666666666666	766.7731629392972	0.00372096283126
13083.333333333334	764.3312101910827	0.00325498101394
13125.0	761.9047619047619	0.00284429848112
13166.666666666666	759.493670886076	0.0024827641223
13208.333333333334	757.0977917981072	0.00216485759823
13250.0	754.7169811320755	0.00188563134744
13291.666666666666	752.3510971786834	0.00164065711588
13333.333333333334	750.0	0.00142597675263
13375.0	747.6635514018692	0.00123805701733
13416.666666666666	745.3416149068323	0.00107374815018
13458.333333333334	743.0340557275541	0.00093024596101
13500.0	740.7407407407408	0.000805057201561
13541.666666666666	738.4615384615385	0.000695967993261
13583.333333333334	736.1963190184049	0.000601015091539
13625.0	733.9449541284404	0.000518459777426
13666.666666666666	731.7073170731708	0.000446764176984
13708.333333333334	729.483282674772	0.000384569819248
13750.0	727.2727272727273	0.000330678253666
13791.666666666666	725.0755287009064	0.000284033558292
13833.333333333334	722.8915662650602	0.000243706580208
13875.0	720.7207207207207	0.000208880759695
13916.666666666666	718.5628742514971	0.000178839399521
13958.333333333334	716.4179104477612	0.000152954250231
14000.0	714.2857142857143	0.000130675291579
14041.666666666666	712.166172106825	0.00011152159907
14083.333333333334	710.059171597633	9.50731930511e-05
14125.0	707.9646017699115	8.09637758546e-05
14166.666666666668	705.8823529411765	6.8874270125e-05
14208.333333333334	703.8123167155425	5.85270786572e-05
14250.0	701.7543859649123	4.96809928594e-05
14291.666666666668	699.7084548104956	4.21266832936e-05
14333.333333333334	697.6744186046511	3.56827116761e-05
14375.0	695.6521739130435	3.01920092369e-05
14416.666666666668	693.6416184971098	2.55187714568e-05
14458.333333333334	691.64265129683	2.15457239391e-05
14500.0	689.6551724137931	1.81717185399e-05
14541.666666666668	687.6790830945558	1.53096229084e-05
14583.333333333334	685.7142857142857	1.28844702725e-05
14625.0	683.7606837606837	1.08318396874e-05
14666.666666666668	681.8181818181818	9.09644004832e-06
14708.333333333334	679.8866855524079	7.6308739754e-06
14750.0	677.9661016949152	6.39456023523e-06
14791.666666666668	676.056338028169	5.35279567525e-06
14833.333333333334	674.1573033707865	4.475939742e-06
14875.0	672.2689075630252	3.73870654394e-06
14916.666666666668	670.3910614525139	3.11955112129e-06
14958.333333333334	668.5236768802229	2.60013811543e-06
15000.0	666.6666666666666	2.16488240219e-06
15041.666666666668	664.8199445983379	1.80055248178e-06
15083.333333333334	662.9834254143647	1.49592851524e-06
15125.0	661.1570247933885	1.24150787531e-06
15166.666666666668	659.3406593406593	1.02925195044e-06
15208.333333333334	657.5342465753424	8.5236871347e-07
15250.0	655.7377049180328	7.05126252156e-07
15291.666666666668	653.9509536784741	5.82693065066e-07
15333.333333333334	652.1739130434783	4.81001462213e-07
15375.0	650.4065040650406	3.96630881988e-07
15416.666666666668	648.6486486486486	3.26708351746e-07
15458.333333333334	646.9002695417789	2.68823684591e-07
15500.0	645.1612903225806	2.20957325245e-07
15541.666666666668	643.4316353887399	1.81419038312e-07
15583.333333333334	641.711229946524	1.48795877438e-07
15625.0	640.0	1.21908087722e-07
15666.666666666668	638.2978723404254	9.97717801018e-08
15708.333333333334	636.604774535809	8.15673784929e-08
15750.0	634.9206349206349	6.66129811699e-08
15791.666666666668	633.2453825857519	5.43418998608e-08
15833.333333333334	631.578947368421	4.42837455985e-08
15875.0	629.9212598425197	3.60485215954e-08
15916.666666666668	628.2722513089004	2.93132621113e-08
15958.333333333334	626.6318537859007	2.38108240724e-08
16000.0	625.0	1.93204965074e-08
16041.666666666668	623.3766233766233	1.56601429275e-08
16083.333333333334	621.761658031088	1.26796347043e-08
16125.0	620.1550387596899	1.0255370244e-08
16166.666666666668	618.5567010309278	8.28570616975e-09
16208.333333333334	616.9665809768637	6.68715352693e-09
16250.0	615.3846153846154	5.39121487714e-09
16291.666666666668	613.8107416879795	4.34175758231e-09
16333.333333333334	612.2448979591836	3.49283510124e-09
16375.0	610.6870229007634	2.80688213325e-09
16416.666666666668	609.1370558375634	2.25322131653e-09
16458.333333333336	607.5949367088607	1.80682923173e-09
16500.0	606.060606060606	1.4473179453e-09
16541.666666666668	604.5340050377833	1.1580954827e-09
16583.333333333336	603.0150753768843	9.25674648982e-10
16625.0	601.5037593984962	7.39104683671e-10
16666.666666666668	600.0	5.89504494442e-10
16708.333333333336	598.503740648379	4.69679784979e-10
16750.0	597.0149253731344	3.73809382975e-10
16791.666666666668	595.5334987593052	2.97188575346e-10
16833.333333333336	594.0594059405939	2.3601934653e-10
16875.0	592.5925925925926	1.87239157778e-10
16916.666666666668	591.1330049261084	1.48381356187e-10
16958.333333333336	589.6805896805896	1.17461508834e-10
17000.0	588.2352941176471	9.28849595045e-11
17041.666666666668	586.7970660146699	7.33717366876e-11
17083.333333333336	585.3658536585365	5.78956299007e-11
17125.0	583.9416058394161	4.56348208344e-11
17166.666666666668	582.5242718446601	3.59319261196e-11
17208.333333333336	581.1138014527844	2.82616964941e-11
17250.0	579.7101449275362	2.22049367312e-11
17291.666666666668	578.3132530120481	1.74274736131e-11
17333.333333333336	576.9230769230768	1.3663215225e-11
17375.0	575.5395683453237	1.07005220658e-11
17416.666666666668	574.1626794258373	8.37125567214e-12
17458.333333333336	572.7923627684963	6.54198926814e-12
17500.0	571.4285714285714	5.10696204665e-12
17541.666666666668	570.0712589073634	3.98243792544e-12
17583.333333333336	568.7203791469193	3.10219420194e-12
17625.0	567.3758865248227	2.41391809524e-12
17666.666666666668	566.0377358490566	1.87633189337e-12
17708.333333333336	564.7058823529411	1.45690211185e-12
17750.0	563.3802816901408	1.13001619284e-12
17791.666666666668	562.0608899297423	8.75533046081e-13
17833.333333333336	560.7476635514018	6.77632146378e-13
17875.0	559.4405594405595	5.23900773889e-13
17916.666666666668	558.1395348837209	4.04610977429e-13
17958.333333333336	556.844547563805	3.1214750258e-13
18000.0	555.5555555555555	2.40555698689e-13
18041.666666666668	554.2725173210162	1.85184663435e-13
18083.333333333336	552.9953917050691	1.42405894246e-13
18125.0	551.7241379310345	1.09391731331e-13
18166.666666666668	550.4587155963302	8.39410907722e-14
18208.333333333336	549.1990846681922	6.43425550255e-14
18250.0	547.945205479452	4.92669388572e-14
18291.666666666668	546.6970387243736	3.76830838502e-14
18333.333333333336	545.4545454545454	2.87919365449e-14
18375.0	544.2176870748299	2.19750007281e-14
18416.666666666668	542.9864253393665	1.6754076789e-14
18458.333333333336	541.7607223476298	1.27598534646e-14
18500.0	540.5405405405405	9.70743416986e-15
18541.666666666668	539.3258426966291	7.37728910419e-15
18583.333333333336	538.1165919282511	5.60044754567e-15
18625.0	536.9127516778524	4.24699985955e-15
18666.666666666668	535.7142857142857	3.21717985896e-15
18708.333333333336	534.5211581291759	2.43445649296e-15
18750.0	533.3333333333334	1.84018834499e-15
18791.666666666668	532.150776053215	1.3894922083e-15
18833.333333333336	530.9734513274335	1.04805370517e-15
18875.0	529.8013245033112	7.89668003816e-16
18916.666666666668	528.6343612334801	5.94345702695e-16
18958.333333333336	527.4725274725274	4.46855692081e-16
19000.0	526.3157894736842	3.35605479967e-16
19041.666666666668	525.1641137855579	2.51781823606e-16
19083.333333333336	524.0174672489082	1.88691913083e-16
19125.0	522.875816993464	1.41258887775e-16
19166.666666666668	521.7391304347826	1.0563597839e-16
19208.333333333336	520.6073752711496	7.89117214406e-17
19250.0	519.4805194805194	5.88850106337e-17
19291.666666666668	518.3585313174946	4.38936382376e-17
19333.333333333336	517.2413793103448	3.268375783e-17
19375.0	516.1290322580645	2.43106163532e-17
19416.666666666668	515.0214592274677	1.80631520386e-17
19458.333333333336	513.9186295503212	1.34067863004e-17
19500.0	512.8205128205128	9.94006943868e-18
19541.666666666668	511.727078891258	7.36186300411e-18
19583.333333333336	510.6382978723404	5.44652656847e-18
19625.0	509.5541401273885	4.02517812058e-18
19666.666666666668	508.47457627118644	2.97155766242e-18
19708.333333333336	507.39957716701895	2.19137550389e-18
19750.0	506.32911392405066	1.61429545865e-18
19791.666666666668	505.2631578947368	1.18790806053e-18
19833.333333333336	504.2016806722688	8.73205002982e-19
19875.0	503.1446540880503	6.41184748114e-19
19916.666666666668	502.092050209205	4.70309480107e-19
19958.333333333336	501.0438413361168	3.44602056258e-19
20000.0	500.0	2.52223517479e-19
20041.666666666668	498.9604989604989	1.84411021405e-19
20083.333333333336	497.92531120331944	1.34685781451e-19
20125.0	496.8944099378882	9.826304304e-20
20166.666666666668	495.8677685950413	7.16130631008e-20
20208.333333333336	494.8453608247422	5.21348193247e-20
20250.0	493.82716049382714	3.79137792664e-20
20291.666666666668	492.8131416837782	2.75422783845e-20
20333.333333333336	491.80327868852453	1.99864762479e-20
20375.0	490.79754601226995	1.44879247566e-20
20416.666666666668	489.7959183673469	1.0490826718e-20
20458.333333333336	488.7983706720977	7.58834080125e-21
20500.0	487.8048780487805	5.48299087174e-21
20541.666666666668	486.815415821501	3.95750798884e-21
20583.333333333336	485.82995951416996	2.85338030611e-21
20625.0	484.8484848484849	2.05509120429e-21
20666.666666666668	483.87096774193543	1.47855036691e-21
20708.333333333336	482.897384305835	1.0626120295e-21
20750.0	481.9277108433735	7.62863638014e-22
20791.666666666668	480.96192384769535	5.47082323967e-22
20833.333333333336	479.99999999999994	3.91915133153e-22
20875.0	479.0419161676647	2.80456148423e-22
20916.666666666668	478.0876494023904	2.00480196535e-22
20958.333333333336	477.13717693836975	1.43156665902e-22
21000.0	476.1904761904762	1.02113991566e-22
21041.666666666668	475.2475247524752	7.27599701568e-23
21083.333333333336	474.3083003952569	5.17885025342e-23
21125.0	473.37278106508876	3.68220341721e-23
21166.666666666668	472.4409448818897	2.61526548173e-23
21208.333333333336	471.5127701375245	1.85548466127e-23
21250.0	470.5882352941176	1.31502054252e-23
21291.666666666668	469.6673189823874	9.30982007423e-24
21333.333333333336	468.74999999999994	6.5839059745e-24
21375.0	467.8362573099415	4.65114130865e-24
21416.666666666668	466.9260700389105	3.28223014806e-24
21458.333333333336	466.0194174757281	2.31372696552e-24
21500.0	465.1162790697674	1.62925389471e-24
21541.666666666668	464.21663442940036	1.14603797708e-24
21583.333333333336	463.32046332046326	8.05272434311e-25
21625.0	462.42774566473986	5.65223536497e-25
21666.666666666668	461.5384615384615	3.9630652706e-25
21708.333333333336	460.6525911708253	2.77572089074e-25
21750.0	459.7701149425287	1.94202110262e-25
21791.666666666668	458.8910133843212	1.35726821073e-25
21833.333333333336	458.0152671755725	9.47569322062e-26
21875.0	457.14285714285717	6.60830209187e-26
21916.666666666668	456.2737642585551	4.60365072036e-26
21958.333333333336	455.40796963946866	3.20367480803e-26
22000.0	454.54545454545456	2.22704025895e-26
22041.666666666668	453.6862003780718	1.5464692597e-26
22083.333333333336	452.8301886792452	1.07272424686e-26
22125.0	451.97740112994353	7.4330744793e-27
22166.666666666668	451.12781954887214	5.14496534253e-27
22208.333333333336	450.2814258911819	3.55737791572e-27
22250.0	449.438202247191	2.45703383743e-27
22291.666666666668	448.5981308411215	1.69521915953e-27
22333.333333333336	447.7611940298507	1.16835319009e-27
22375.0	446.92737430167597	8.04370300805e-28
22416.666666666668	446.09665427509293	5.53186390803e-28
22458.333333333336	445.2690166975881	3.80032316857e-28
22500.0	444.44444444444446	2.60797337441e-28
22541.666666666668	443.62292051756003	1.7878017538e-28
22583.333333333336	442.80442804428037	1.22424727652e-28
22625.0	441.9889502762431	8.3743771502e-29
22666.666666666668	441.17647058823525	5.72228477689e-29
22708.333333333336	440.36697247706417	3.90588992867e-29
22750.0	439.56043956043953	2.66320204282e-29
22791.666666666668	438.75685557586837	1.81393538189e-29
22833.333333333336	437.956204379562	1.2341646155e-29
22875.0	437.1584699453552	8.38799090991e-30
22916.666666666668	436.3636363636363	5.69477268733e-30
22958.333333333336	435.57168784029034	3.8621436015e-30
23000.0	434.7826086956522	2.61645954142e-30
23041.666666666668	433.9963833634719	1.77065198822e-30
23083.333333333336	433.21299638989166	1.19697748398e-30
23125.0	432.43243243243245	8.08299541775e-31
23166.666666666668	431.65467625899277	5.45245720946e-31
23208.333333333336	430.8797127468581	3.67405608122e-31
23250.0	430.10752688172045	2.47304989284e-31
23291.666666666668	429.3381037567084	1.66285184658e-31
23333.333333333336	428.57142857142856	1.1168833527e-31
23375.0	427.80748663101605	7.49368891548e-32
23416.666666666668	427.0462633451957	5.02246691687e-32
23458.333333333336	426.2877442273534	3.3625758609e-32
23500.0	425.531914893617	2.24885098596e-32
23541.666666666668	424.7787610619469	1.50239056982e-32
23583.333333333336	424.0282685512367	1.00262516477e-32
23625.0	423.2804232804233	6.68386907604e-33
23666.666666666668	422.53521126760563	4.4509308773e-33
23708.333333333336	421.79261862917394	2.9607882396e-33
23750.0	421.05263157894734	1.96742155945e-33
23791.666666666668	420.3152364273205	1.30593357378e-33
23833.333333333336	419.5804195804195	8.65921115301e-34
23875.0	418.848167539267	5.73547187688e-34
23916.666666666668	418.1184668989547	3.79484079881e-34
23958.333333333336	417.39130434782606	2.50813870071e-34
24000.0	416.6666666666667	1.65593436728e-34
24041.666666666668	415.9445407279029	1.09211474728e-34
24083.333333333336	415.22491349480964	7.1949371643e-35
24125.0	414.5077720207254	4.73499278033e-35
24166.666666666668	413.7931034482758	3.11275700175e-35
24208.333333333336	413.0808950086058	2.04411204845e-35
24250.0	412.37113402061857	1.34090422531e-35
24291.666666666668	411.663807890223	8.78667174765e-36
24333.333333333336	410.958904109589	5.75154639298e-36
24375.0	410.2564102564103	3.76078437642e-36
24416.666666666668	409.55631399317406	2.45643808741e-36
24458.333333333336	408.85860306643946	1.60275371787e-36
24500.0	408.16326530612247	1.04462723713e-36
24541.666666666668	407.47028862478777	6.80126159554e-37
24583.333333333336	406.7796610169491	4.42334888752e-37
24625.0	406.0913705583756	2.87373351565e-37
24666.666666666668	405.40540540540536	1.86498512694e-37
24708.333333333336	404.7217537942664	1.20903210716e-37
24750.0	404.04040404040404	7.82949727842e-38
24791.666666666668	403.3613445378151	5.0648140193e-38
24833.333333333336	402.68456375838923	3.27285458399e-38
24875.0	402.0100502512563	2.11263027165e-38
24916.666666666668	401.33779264214047	1.36224075479e-38
24958.333333333336	400.66777963272114	8.77440793748e-39
25000.0	400.0	5.6456682681e-39
25041.666666666668	399.33444259567386	3.62866162786e-39
25083.333333333336	398.6710963455149	2.32975992332e-39
25125.0	398.00995024875624	1.49420247042e-39
25166.666666666668	397.3509933774834	9.57285127755e-40
25208.333333333336	396.694214876033	6.12641983928e-40
25250.0	396.03960396039605	3.91656898807e-40
25291.666666666668	395.38714991762765	2.50114222424e-40
25333.333333333336	394.7368421052631	1.59552854028e-40
25375.0	394.0886699507389	1.01672697961e-40
25416.666666666668	393.44262295081967	6.47198796188e-41
25458.333333333336	392.79869067103107	4.11532970877e-41
25500.0	392.15686274509807	2.61399740349e-41
25541.666666666668	391.5171288743882	1.65859079262e-41
25583.333333333336	390.87947882736154	1.05125223049e-41
25625.0	390.2439024390244	6.65592151535e-42
25666.666666666668	389.6103896103896	4.20962137604e-42
25708.333333333336	388.9789303079416	2.65957022197e-42
25750.0	388.3495145631068	1.67846955891e-42
25791.666666666668	387.72213247172857	1.05815443989e-42
25833.333333333336	387.09677419354836	6.6637428524e-43
25875.0	386.47342995169083	4.19199718867e-43
25916.666666666668	385.8520900321543	2.63425199469e-43
25958.333333333336	385.23274478330654	1.65358770414e-43
26000.0	384.61538461538464	1.03688533657e-43
26041.666666666668	384.0	6.49483037607e-44
26083.333333333336	383.38658146964855	4.06385754206e-44
26125.0	382.7751196172249	2.54005265433e-44
26166.666666666668	382.16560509554137	1.58591733189e-44
26208.333333333336	381.5580286168521	9.89126763697e-45
26250.0	380.95238095238096	6.16250014785e-45
26291.666666666668	380.3486529318542	3.83526620953e-45
26333.333333333336	379.7468354430379	2.38433716035e-45
26375.0	379.1469194312796	1.48072156866e-45
26416.666666666668	378.5488958990536	9.18570977089e-46
26458.333333333336	377.95275590551176	5.69227165882e-46
26500.0	377.35849056603774	3.52364460411e-46
26541.666666666668	376.76609105180535	2.1788742246e-46
26583.333333333336	376.17554858934164	1.34587834566e-46
26625.0	375.5868544600939	8.3044912494e-47
26666.666666666668	375.0	5.11863120313e-47
26708.333333333336	374.41497659906395	3.1515792298e-47
26750.0	373.8317757009346	1.93836786511e-47
26791.666666666668	373.2503888024883	1.19090674453e-47
26833.333333333336	372.6708074534161	7.30891464594e-48
26875.0	372.09302325581393	4.48086239741e-48
26916.666666666668	371.51702786377706	2.74412510124e-48
26958.333333333336	370.9428129829984	1.67872588599e-48
27000.0	370.3703703703704	1.02586272532e-48
27041.666666666668	369.79969183359015	6.26227729839e-49
27083.333333333336	369.23076923076917	3.81864178975e-49
27125.0	368.66359447004606	2.32605044616e-49
27166.666666666668	368.09815950920245	1.41534696946e-49
27208.333333333336	367.5344563552833	8.60280920756e-50
27250.0	366.9724770642202	5.22337546801e-50
27291.666666666668	366.412213740458	3.16807737989e-50
27333.333333333336	365.8536585365853	1.91943715851e-50
27375.0	365.29680365296804	1.1616775524e-50
27416.666666666668	364.741641337386	7.0231327671e-51
27458.333333333336	364.1881638846737	4.24140497525e-51
27500.0	363.6363636363636	2.55871659773e-51
27541.666666666668	363.0862329803328	1.54194262088e-51
27583.333333333336	362.53776435045313	9.28213373703e-52
27625.0	361.99095022624437	5.58162958321e-52
27666.666666666668	361.4457831325301	3.35280105097e-52
27708.333333333336	360.9022556390977	2.01181544505e-52
27750.0	360.36036036036035	1.20587439555e-52
27791.666666666668	359.82008995502247	7.22020604853e-53
27833.333333333336	359.2814371257485	4.31847779721e-53
27875.0	358.74439461883406	2.5801524807e-53
27916.666666666668	358.2089552238806	1.53990395957e-53
27958.333333333336	357.6751117734724	9.18069333427e-54
28000.0	357.14285714285717	5.46752663855e-54
28041.666666666668	356.6121842496285	3.25266934304e-54
28083.333333333336	356.08308605341244	1.93295839775e-54
28125.0	355.55555555555554	1.14746297049e-54
28166.666666666668	355.0295857988165	6.80437803054e-55
28208.333333333336	354.50516986706054	4.03061920429e-55
28250.0	353.98230088495575	2.38500167154e-55
28291.666666666668	353.46097201767304	1.40974053542e-55
28333.333333333336	352.94117647058823	8.32383128934e-56
